input file: input-plate.dat

Input Data:
E=,20387.35984,h=,5.000000,rho=,7.95107e-10,nu=,0.300000,q=,0.010000

Calculated Data:
D=,233371.7930402931,

Radius Range:
r: 0.000000, 300.000000

Boundary Conditions Found:
angle=0.,r=300.,
angle=0.,r=0.,
disp=0.,r=300.,

  radius(mm),    Disp(mm),  Angle(rad),Moment_r(kgs.mm),Moment_t(kgs.mm), Sr(kgs/mm2), St(kgs/mm2)
    0.000000,       5.423,    0.000000,      112.50,       33.75,       27.00,        8.10
    3.000000,       5.422,    0.000723,       73.11,       73.11,       17.55,       17.55
    6.000000,       5.419,    0.001446,       73.05,       73.08,       17.53,       17.54
    9.000000,       5.413,    0.002167,       72.96,       73.03,       17.51,       17.53
   12.000000,       5.406,    0.002888,       72.83,       72.95,       17.48,       17.51
   15.000000,       5.396,    0.003606,       72.66,       72.86,       17.44,       17.49
   18.000000,       5.384,    0.004323,       72.46,       72.74,       17.39,       17.46
   21.000000,       5.370,    0.005037,       72.22,       72.60,       17.33,       17.42
   24.000000,       5.354,    0.005748,       71.94,       72.44,       17.26,       17.39
   27.000000,       5.336,    0.006455,       71.62,       72.26,       17.19,       17.34
   30.000000,       5.315,    0.007159,       71.27,       72.06,       17.10,       17.29
   33.000000,       5.293,    0.007858,       70.88,       71.83,       17.01,       17.24
   36.000000,       5.268,    0.008552,       70.45,       71.59,       16.91,       17.18
   39.000000,       5.241,    0.009241,       69.99,       71.32,       16.80,       17.12
   42.000000,       5.213,    0.009925,       69.49,       71.03,       16.68,       17.05
   45.000000,       5.182,    0.010602,       68.95,       70.72,       16.55,       16.97
   48.000000,       5.149,    0.011273,       68.37,       70.39,       16.41,       16.89
   51.000000,       5.114,    0.011937,       67.76,       70.04,       16.26,       16.81
   54.000000,       5.077,    0.012594,       67.11,       69.66,       16.11,       16.72
   57.000000,       5.039,    0.013243,       66.42,       69.27,       15.94,       16.62
   60.000000,       4.998,    0.013883,       65.70,       68.85,       15.77,       16.52
   63.000000,       4.955,    0.014515,       64.94,       68.41,       15.59,       16.42
   66.000000,       4.911,    0.015138,       64.14,       67.95,       15.39,       16.31
   69.000000,       4.865,    0.015751,       63.31,       67.47,       15.19,       16.19
   72.000000,       4.816,    0.016355,       62.43,       66.97,       14.98,       16.07
   75.000000,       4.766,    0.016948,       61.52,       66.45,       14.77,       15.95
   78.000000,       4.715,    0.017530,       60.58,       65.90,       14.54,       15.82
   81.000000,       4.661,    0.018100,       59.59,       65.33,       14.30,       15.68
   84.000000,       4.606,    0.018659,       58.57,       64.75,       14.06,       15.54
   87.000000,       4.549,    0.019206,       57.51,       64.14,       13.80,       15.39
   90.000000,       4.491,    0.019740,       56.42,       63.51,       13.54,       15.24
   93.000000,       4.431,    0.020262,       55.29,       62.85,       13.27,       15.09
   96.000000,       4.369,    0.020770,       54.12,       62.18,       12.99,       14.92
   99.000000,       4.306,    0.021264,       52.91,       61.49,       12.70,       14.76
  102.000000,       4.242,    0.021743,       51.67,       60.77,       12.40,       14.58
  105.000000,       4.176,    0.022208,       50.39,       60.03,       12.09,       14.41
  108.000000,       4.109,    0.022658,       49.07,       59.27,       11.78,       14.23
  111.000000,       4.040,    0.023092,       47.71,       58.49,       11.45,       14.04
  114.000000,       3.970,    0.023510,       46.32,       57.69,       11.12,       13.85
  117.000000,       3.899,    0.023911,       44.89,       56.87,       10.77,       13.65
  120.000000,       3.827,    0.024296,       43.42,       56.03,       10.42,       13.45
  123.000000,       3.753,    0.024663,       41.92,       55.16,       10.06,       13.24
  126.000000,       3.679,    0.025013,       40.38,       54.27,        9.69,       13.03
  129.000000,       3.603,    0.025344,       38.80,       53.36,        9.31,       12.81
  132.000000,       3.527,    0.025657,       37.19,       52.43,        8.93,       12.58
  135.000000,       3.449,    0.025950,       35.54,       51.48,        8.53,       12.36
  138.000000,       3.371,    0.026224,       33.85,       50.51,        8.12,       12.12
  141.000000,       3.292,    0.026478,       32.12,       49.52,        7.71,       11.88
  144.000000,       3.212,    0.026712,       30.36,       48.50,        7.29,       11.64
  147.000000,       3.132,    0.026925,       28.56,       47.46,        6.85,       11.39
  150.000000,       3.051,    0.027116,       26.72,       46.41,        6.41,       11.14
  153.000000,       2.969,    0.027286,       24.84,       45.33,        5.96,       10.88
  156.000000,       2.887,    0.027434,       22.93,       44.23,        5.50,       10.61
  159.000000,       2.804,    0.027559,       20.98,       43.10,        5.04,       10.34
  162.000000,       2.722,    0.027661,       19.00,       41.96,        4.56,       10.07
  165.000000,       2.638,    0.027740,       16.97,       40.80,        4.07,        9.79
  168.000000,       2.555,    0.027795,       14.91,       39.61,        3.58,        9.51
  171.000000,       2.472,    0.027825,       12.82,       38.40,        3.08,        9.22
  174.000000,       2.388,    0.027831,       10.68,       37.17,        2.56,        8.92
  177.000000,       2.305,    0.027812,        8.51,       35.92,        2.04,        8.62
  180.000000,       2.221,    0.027767,        6.30,       34.65,        1.51,        8.32
  183.000000,       2.138,    0.027696,        4.05,       33.36,        0.97,        8.01
  186.000000,       2.055,    0.027599,        1.77,       32.04,        0.42,        7.69
  189.000000,       1.973,    0.027474,       -0.55,       30.71,       -0.13,        7.37
  192.000000,       1.890,    0.027323,       -2.91,       29.35,       -0.70,        7.04
  195.000000,       1.809,    0.027143,       -5.30,       27.97,       -1.27,        6.71
  198.000000,       1.728,    0.026936,       -7.73,       26.57,       -1.86,        6.38
  201.000000,       1.647,    0.026699,      -10.20,       25.15,       -2.45,        6.04
  204.000000,       1.567,    0.026434,      -12.71,       23.71,       -3.05,        5.69
  207.000000,       1.489,    0.026139,      -15.25,       22.24,       -3.66,        5.34
  210.000000,       1.411,    0.025814,      -17.83,       20.76,       -4.28,        4.98
  213.000000,       1.334,    0.025459,      -20.45,       19.25,       -4.91,        4.62
  216.000000,       1.258,    0.025073,      -23.10,       17.72,       -5.54,        4.25
  219.000000,       1.183,    0.024656,      -25.79,       16.17,       -6.19,        3.88
  222.000000,       1.110,    0.024207,      -28.52,       14.60,       -6.85,        3.50
  225.000000,       1.038,    0.023727,      -31.29,       13.01,       -7.51,        3.12
  228.000000,       0.968,    0.023213,      -34.09,       11.39,       -8.18,        2.73
  231.000000,       0.899,    0.022667,      -36.93,        9.76,       -8.86,        2.34
  234.000000,       0.832,    0.022087,      -39.81,        8.10,       -9.55,        1.94
  237.000000,       0.766,    0.021473,      -42.72,        6.42,      -10.25,        1.54
  240.000000,       0.703,    0.020825,      -45.68,        4.72,      -10.96,        1.13
  243.000000,       0.641,    0.020142,      -48.66,        3.00,      -11.68,        0.72
  246.000000,       0.582,    0.019425,      -51.69,        1.26,      -12.41,        0.30
  249.000000,       0.525,    0.018671,      -54.75,       -0.50,      -13.14,       -0.12
  252.000000,       0.470,    0.017882,      -57.85,       -2.29,      -13.88,       -0.55
  255.000000,       0.418,    0.017056,      -60.99,       -4.09,      -14.64,       -0.98
  258.000000,       0.368,    0.016193,      -64.16,       -5.92,      -15.40,       -1.42
  261.000000,       0.320,    0.015293,      -67.37,       -7.77,      -16.17,       -1.86
  264.000000,       0.276,    0.014355,      -70.62,       -9.64,      -16.95,       -2.31
  267.000000,       0.234,    0.013380,      -73.91,      -11.53,      -17.74,       -2.77
  270.000000,       0.196,    0.012365,      -77.23,      -13.44,      -18.54,       -3.23
  273.000000,       0.160,    0.011311,      -80.59,      -15.38,      -19.34,       -3.69
  276.000000,       0.128,    0.010218,      -83.99,      -17.33,      -20.16,       -4.16
  279.000000,       0.099,    0.009085,      -87.42,      -19.31,      -20.98,       -4.63
  282.000000,       0.073,    0.007912,      -90.89,      -21.31,      -21.81,       -5.11
  285.000000,       0.052,    0.006698,      -94.40,      -23.33,      -22.66,       -5.60
  288.000000,       0.033,    0.005442,      -97.95,      -25.37,      -23.51,       -6.09
  291.000000,       0.019,    0.004145,     -101.53,      -27.43,      -24.37,       -6.58
  294.000000,       0.009,    0.002806,     -105.15,      -29.52,      -25.24,       -7.08
  297.000000,       0.002,    0.001425,     -108.81,      -31.62,      -26.11,       -7.59
  300.000000,      -0.000,    0.000000,     -112.50,      -33.75,      -27.00,       -8.10


    Maximum:,       5.423,    0.027831,      112.50,       73.11,       27.00,       17.55
